# t[sec] Amplitude 
-0.25 -1
-0.249878 -0.981673
-0.249756 -0.927363
-0.249634 -0.83906
-0.249512 -0.720003
-0.24939 -0.574553
-0.249268 -0.408044
-0.249146 -0.226578
-0.249023 -0.0368072
-0.248901 0.154313
-0.248779 0.339777
-0.248657 0.512786
-0.248535 0.667
-0.248413 0.796765
-0.248291 0.897325
-0.248169 0.964993
-0.248047 0.99729
-0.247925 0.993032
-0.247803 0.952375
-0.247681 0.876809
-0.247559 0.769103
-0.247437 0.633207
-0.247314 0.4741
-0.247192 0.297616
-0.24707 0.110222
-0.246948 -0.0812114
-0.246826 -0.269668
-0.246704 -0.448241
-0.246582 -0.610383
-0.24646 -0.750152
-0.246338 -0.862424
-0.246216 -0.943084
-0.246094 -0.989177
-0.245972 -0.999011
-0.24585 -0.972226
-0.245728 -0.909806
-0.245605 -0.814036
-0.245483 -0.688429
-0.245361 -0.537587
-0.245239 -0.36704
-0.245117 -0.18304
-0.244995 0.00766983
-0.244873 0.198098
-0.244751 0.381266
-0.244629 0.550458
-0.244507 0.699473
-0.244385 0.82285
-0.244263 0.916065
-0.244141 0.975702
-0.244019 0.999575
-0.243896 0.986809
-0.243774 0.937872
-0.243652 0.854558
-0.24353 0.73992
-0.243408 0.598161
-0.243286 0.434476
-0.243164 0.254866
-0.243042 0.0659134
-0.24292 -0.125455
-0.242798 -0.312225
-0.242676 -0.48755
-0.242554 -0.645005
-0.242432 -0.778817
-0.24231 -0.884081
-0.242188 -0.95694
-0.242065 -0.994723
-0.241943 -0.996045
-0.241821 -0.960857
-0.241699 -0.890449
-0.241577 -0.787402
-0.241455 -0.655493
-0.241333 -0.499557
-0.241211 -0.32531
-0.241089 -0.139139
-0.240967 0.0521317
-0.240845 0.241492
-0.240723 0.422
-0.240601 0.58704
-0.240479 0.730563
-0.240356 0.847307
-0.240234 0.932993
-0.240112 0.98448
-0.23999 0.999882
-0.239868 0.978634
-0.239746 0.921514
-0.239624 0.830616
-0.239502 0.709273
-0.23938 0.561931
-0.239258 0.393992
-0.239136 0.211611
-0.239014 0.0214741
-0.238892 -0.16945
-0.23877 -0.354164
-0.238647 -0.525895
-0.238525 -0.67835
-0.238403 -0.80594
-0.238281 -0.903989
-0.238159 -0.968903
-0.238037 -0.998302
-0.237915 -0.991108
-0.237793 -0.947586
-0.237671 -0.86933
-0.237549 -0.759209
-0.237427 -0.62126
-0.237305 -0.460539
-0.237183 -0.282937
-0.237061 -0.0949635
-0.236938 0.0964904
-0.236816 0.284408
-0.236694 0.4619
-0.236572 0.622461
-0.23645 0.760207
-0.236328 0.870087
-0.236206 0.948075
-0.236084 0.991311
-0.235962 0.998211
-0.23584 0.968522
-0.235718 0.903332
-0.235596 0.805031
-0.235474 0.677222
-0.235352 0.52459
-0.235229 0.352729
-0.235107 0.167938
-0.234985 -0.0230077
-0.234863 -0.21311
-0.234741 -0.395401
-0.234619 -0.563199
-0.234497 -0.710353
-0.234375 -0.83147
-0.234253 -0.922109
-0.234131 -0.978948
-0.234009 -0.999905
-0.233887 -0.98421
-0.233765 -0.93244
-0.233643 -0.846491
-0.233521 -0.729514
-0.233398 -0.585798
-0.233276 -0.420609
-0.233154 -0.240003
-0.233032 -0.0505997
-0.23291 0.140658
-0.232788 0.32676
-0.232666 0.500885
-0.232544 0.656651
-0.232422 0.788346
-0.2323 0.891146
-0.232178 0.96128
-0.232056 0.99618
-0.231934 0.994565
-0.231812 0.956494
-0.231689 0.883363
-0.231567 0.777853
-0.231445 0.643832
-0.231323 0.48621
-0.231201 0.310767
-0.231079 0.123933
-0.230957 -0.0674439
-0.230835 -0.256349
-0.230713 -0.435857
-0.230591 -0.599389
-0.230469 -0.740951
-0.230347 -0.855354
-0.230225 -0.938404
-0.230103 -0.987057
-0.22998 -0.999529
-0.229858 -0.975365
-0.229736 -0.915449
-0.229614 -0.821977
-0.229492 -0.698376
-0.22937 -0.549177
-0.229248 -0.379847
-0.229126 -0.196595
-0.229004 -0.00613588
-0.228882 0.184548
-0.22876 0.368467
-0.228638 0.53888
-0.228516 0.689541
-0.228394 0.814926
-0.228271 0.910441
-0.228149 0.972584
-0.228027 0.999078
-0.227905 0.98895
-0.227783 0.942573
-0.227661 0.861646
-0.227539 0.749136
-0.227417 0.609167
-0.227295 0.446869
-0.227173 0.268191
-0.227051 0.0796824
-0.226929 -0.111747
-0.226807 -0.29908
-0.226685 -0.47545
-0.226563 -0.634393
-0.22644 -0.770083
-0.226318 -0.877545
-0.226196 -0.952842
-0.226074 -0.993212
-0.225952 -0.997176
-0.22583 -0.96459
-0.225708 -0.896646
-0.225586 -0.795837
-0.225464 -0.665856
-0.225342 -0.511469
-0.22522 -0.338334
-0.225098 -0.152797
-0.224976 0.0383401
-0.224854 0.228072
-0.224731 0.409444
-0.224609 0.575808
-0.224487 0.721066
-0.224365 0.839894
-0.224243 0.927935
-0.224121 0.981964
-0.223999 0.999999
-0.223877 0.981379
-0.223755 0.926787
-0.223633 0.838225
-0.223511 0.718937
-0.223389 0.573297
-0.223267 0.406643
-0.223145 0.225084
-0.223022 0.0352742
-0.2229 -0.155828
-0.222778 -0.341219
-0.222656 -0.514103
-0.222534 -0.668142
-0.222412 -0.797691
-0.22229 -0.898001
-0.222168 -0.965394
-0.222046 -0.997402
-0.221924 -0.99285
-0.221802 -0.951906
-0.22168 -0.87607
-0.221558 -0.768122
-0.221436 -0.632019
-0.221313 -0.472749
-0.221191 -0.296151
-0.221069 -0.108697
-0.220947 0.0827403
-0.220825 0.271145
-0.220703 0.449611
-0.220581 0.611597
-0.220459 0.751165
-0.220337 0.863199
-0.220215 0.943593
-0.220093 0.9894
-0.219971 0.998941
-0.219849 0.971866
-0.219727 0.909168
-0.219604 0.813144
-0.219482 0.687315
-0.21936 0.536293
-0.219238 0.365613
-0.219116 0.181532
-0.218994 -0.00920375
-0.218872 -0.199602
-0.21875 -0.382683
-0.218628 -0.551738
-0.218506 -0.700569
-0.218384 -0.823721
-0.218262 -0.916679
-0.21814 -0.976037
-0.218018 -0.999619
-0.217896 -0.98656
-0.217773 -0.937339
-0.217651 -0.85376
-0.217529 -0.738887
-0.217407 -0.596931
-0.217285 -0.433094
-0.217163 -0.253382
-0.217041 -0.0643826
-0.216919 0.126977
-0.216797 0.313682
-0.216675 0.488889
-0.216553 0.646176
-0.216431 0.779778
-0.216309 0.884797
-0.216187 0.957385
-0.216064 0.994879
-0.215942 0.995907
-0.21582 0.960431
-0.215698 0.88975
-0.215576 0.786455
-0.215454 0.654334
-0.215332 0.498228
-0.21521 0.323859
-0.215088 0.13762
-0.214966 -0.0536635
-0.214844 -0.24298
-0.214722 -0.42339
-0.2146 -0.588282
-0.214478 -0.731609
-0.214355 -0.84812
-0.214233 -0.933544
-0.214111 -0.984749
-0.213989 -0.999858
-0.213867 -0.978317
-0.213745 -0.920917
-0.213623 -0.829761
-0.213501 -0.708191
-0.213379 -0.560662
-0.213257 -0.392582
-0.213135 -0.210112
-0.213013 -0.0199404
-0.212891 0.170962
-0.212769 0.355598
-0.212646 0.527199
-0.212524 0.679476
-0.212402 0.806848
-0.21228 0.904644
-0.212158 0.969281
-0.212036 0.99839
-0.211914 0.990903
-0.211792 0.947094
-0.21167 0.868571
-0.211548 0.75821
-0.211426 0.620057
-0.211304 0.459177
-0.211182 0.281465
-0.21106 0.0934363
-0.210938 -0.0980171
-0.210815 -0.285878
-0.210693 -0.46326
-0.210571 -0.623661
-0.210449 -0.761202
-0.210327 -0.870842
-0.210205 -0.948561
-0.210083 -0.991511
-0.209961 -0.998118
-0.209839 -0.968139
-0.209717 -0.902673
-0.209595 -0.80412
-0.209473 -0.676093
-0.209351 -0.523283
-0.209229 -0.351293
-0.209106 -0.166426
-0.208984 0.0245412
-0.208862 0.214609
-0.20874 0.39681
-0.208618 0.564466
-0.208496 0.711432
-0.208374 0.832321
-0.208252 0.922701
-0.20813 0.97926
-0.208008 0.999925
-0.207886 0.983937
-0.207764 0.931884
-0.207642 0.845673
-0.20752 0.728464
-0.207397 0.584554
-0.207275 0.419217
-0.207153 0.238514
-0.207031 0.0490677
-0.206909 -0.142177
-0.206787 -0.32821
-0.206665 -0.502212
-0.206543 -0.657807
-0.206421 -0.789289
-0.206299 -0.891841
-0.206177 -0.961702
-0.206055 -0.996313
-0.205933 -0.994404
-0.205811 -0.956045
-0.205688 -0.882643
-0.205566 -0.776888
-0.205444 -0.642657
-0.205322 -0.484869
-0.2052 -0.309309
-0.205078 -0.122411
-0.204956 0.0689743
-0.204834 0.257831
-0.204712 0.437237
-0.20459 0.600616
-0.204468 0.74198
-0.204346 0.856147
-0.204224 0.938932
-0.204102 0.987301
-0.203979 0.999481
-0.203857 0.975025
-0.203735 0.91483
-0.203613 0.821103
-0.203491 0.697278
-0.203369 0.547894
-0.203247 0.378428
-0.203125 0.19509
-0.203003 0.00460193
-0.202881 -0.186055
-0.202759 -0.369892
-0.202637 -0.540171
-0.202515 -0.690651
-0.202393 -0.815814
-0.202271 -0.911075
-0.202148 -0.97294
-0.202026 -0.999142
-0.201904 -0.988722
-0.201782 -0.94206
-0.20166 -0.860867
-0.201538 -0.748119
-0.201416 -0.60795
-0.201294 -0.445496
-0.201172 -0.266713
-0.20105 -0.0781532
-0.200928 0.113271
-0.200806 0.300543
-0.200684 0.476799
-0.200562 0.635578
-0.200439 0.771061
-0.200317 0.87828
-0.200195 0.953306
-0.200073 0.993389
-0.199951 0.99706
-0.199829 0.964184
-0.199707 0.895966
-0.199585 0.794907
-0.199463 0.664711
-0.199341 0.51015
-0.199219 0.33689
-0.199097 0.151281
-0.198975 -0.0398729
-0.198853 -0.229565
-0.19873 -0.410843
-0.198608 -0.577062
-0.198486 -0.722128
-0.198364 -0.840725
-0.198242 -0.928506
-0.19812 -0.982253
-0.197998 -0.999995
-0.197876 -0.981083
-0.197754 -0.92621
-0.197632 -0.837387
-0.19751 -0.71787
-0.197388 -0.57204
-0.197266 -0.405241
-0.197144 -0.223589
-0.197021 -0.0337412
-0.196899 0.157343
-0.196777 0.342661
-0.196655 0.515418
-0.196533 0.669283
-0.196411 0.798615
-0.196289 0.898674
-0.196167 0.965793
-0.196045 0.997511
-0.195923 0.992666
-0.195801 0.951435
-0.195679 0.875329
-0.195557 0.767139
-0.195435 0.630829
-0.195313 0.471397
-0.19519 0.294685
-0.195068 0.107172
-0.194946 -0.0842689
-0.194824 -0.272621
-0.194702 -0.450981
-0.19458 -0.61281
-0.194458 -0.752177
-0.194336 -0.863973
-0.194214 -0.9441
-0.194092 -0.989622
-0.19397 -0.99887
-0.193848 -0.971504
-0.193726 -0.908528
-0.193604 -0.812251
-0.193481 -0.6862
-0.193359 -0.534998
-0.193237 -0.364185
-0.193115 -0.180023
-0.192993 0.0107377
-0.192871 0.201105
-0.192749 0.3841
-0.192627 0.553017
-0.192505 0.701663
-0.192383 0.824589
-0.192261 0.917291
-0.192139 0.97637
-0.192017 0.99966
-0.191895 0.986308
-0.191772 0.936803
-0.19165 0.852961
-0.191528 0.737853
-0.191406 0.595699
-0.191284 0.431711
-0.191162 0.251898
-0.19104 0.0628518
-0.190918 -0.128498
-0.190796 -0.315138
-0.190674 -0.490226
-0.190552 -0.647346
-0.19043 -0.780737
-0.190308 -0.885511
-0.190186 -0.957826
-0.190063 -0.995033
-0.189941 -0.995767
-0.189819 -0.960002
-0.189697 -0.889048
-0.189575 -0.785507
-0.189453 -0.653173
-0.189331 -0.496897
-0.189209 -0.322408
-0.189087 -0.136101
-0.188965 0.0551952
-0.188843 0.244468
-0.188721 0.42478
-0.188599 0.589521
-0.188477 0.732654
-0.188354 0.848932
-0.188232 0.934093
-0.18811 0.985014
-0.187988 0.999831
-0.187866 0.977999
-0.187744 0.920318
-0.187622 0.828904
-0.1875 0.707107
-0.187378 0.559391
-0.187256 0.39117
-0.187134 0.208612
-0.187012 0.0184067
-0.18689 -0.172473
-0.186768 -0.357031
-0.186646 -0.528502
-0.186523 -0.680601
-0.186401 -0.807753
-0.186279 -0.905297
-0.186157 -0.969657
-0.186035 -0.998476
-0.185913 -0.990695
-0.185791 -0.946601
-0.185669 -0.867809
-0.185547 -0.757209
-0.185425 -0.618853
-0.185303 -0.457813
-0.185181 -0.279993
-0.185059 -0.091909
-0.184937 0.0995436
-0.184814 0.287347
-0.184692 0.464619
-0.18457 0.624859
-0.184448 0.762196
-0.184326 0.871595
-0.184204 0.949046
-0.184082 0.99171
-0.18396 0.998023
-0.183838 0.967754
-0.183716 0.902012
-0.183594 0.803208
-0.183472 0.674962
-0.18335 0.521975
-0.183228 0.349856
-0.183105 0.164913
-0.182983 -0.0260747
-0.182861 -0.216107
-0.182739 -0.398218
-0.182617 -0.565732
-0.182495 -0.712509
-0.182373 -0.83317
-0.182251 -0.923291
-0.182129 -0.97957
-0.182007 -0.999942
-0.181885 -0.983662
-0.181763 -0.931327
-0.181641 -0.844854
-0.181519 -0.727413
-0.181396 -0.583309
-0.181274 -0.417824
-0.181152 -0.237024
-0.18103 -0.0475355
-0.180908 0.143695
-0.180786 0.329658
-0.180664 0.503538
-0.180542 0.658961
-0.18042 0.79023
-0.180298 0.892534
-0.180176 0.962121
-0.180054 0.996443
-0.179932 0.99424
-0.17981 0.955594
-0.179688 0.881921
-0.179565 0.775922
-0.179443 0.641481
-0.179321 0.483527
-0.179199 0.30785
-0.179077 0.120888
-0.178955 -0.0705046
-0.178833 -0.259313
-0.178711 -0.438616
-0.178589 -0.601842
-0.178467 -0.743008
-0.178345 -0.856939
-0.178223 -0.939459
-0.178101 -0.987544
-0.177979 -0.999431
-0.177856 -0.974684
-0.177734 -0.91421
-0.177612 -0.820226
-0.17749 -0.696177
-0.177368 -0.54661
-0.177246 -0.377007
-0.177124 -0.193586
-0.177002 -0.00306796
-0.17688 0.187562
-0.176758 0.371317
-0.176636 0.541462
-0.176514 0.691759
-0.176392 0.816701
-0.17627 0.911706
-0.176147 0.973293
-0.176025 0.999205
-0.175903 0.988491
-0.175781 0.941544
-0.175659 0.860085
-0.175537 0.747101
-0.175415 0.606731
-0.175293 0.444122
-0.175171 0.265234
-0.175049 0.0766239
-0.174927 -0.114795
-0.174805 -0.302006
-0.174683 -0.478147
-0.174561 -0.636762
-0.174438 -0.772036
-0.174316 -0.879012
-0.174194 -0.953768
-0.174072 -0.993564
-0.17395 -0.996941
-0.173828 -0.963776
-0.173706 -0.895284
-0.173584 -0.793975
-0.173462 -0.663564
-0.17334 -0.50883
-0.173218 -0.335445
-0.173096 -0.149765
-0.172974 0.0414056
-0.172852 0.231058
-0.172729 0.412241
-0.172607 0.578314
-0.172485 0.723188
-0.172363 0.841555
-0.172241 0.929075
-0.172119 0.982539
-0.171997 0.999989
-0.171875 0.980785
-0.171753 0.925631
-0.171631 0.836548
-0.171509 0.716801
-0.171387 0.570781
-0.171265 0.403838
-0.171143 0.222094
-0.171021 0.032208
-0.170898 -0.158858
-0.170776 -0.344101
-0.170654 -0.516732
-0.170532 -0.670422
-0.17041 -0.799537
-0.170288 -0.899346
-0.170166 -0.96619
-0.170044 -0.997618
-0.169922 -0.99248
-0.1698 -0.950962
-0.169678 -0.874587
-0.169556 -0.766154
-0.169434 -0.629638
-0.169312 -0.470043
-0.169189 -0.293219
-0.169067 -0.105647
-0.168945 0.0857973
-0.168823 0.274097
-0.168701 0.45235
-0.168579 0.614022
-0.168457 0.753187
-0.168335 0.864744
-0.168213 0.944605
-0.168091 0.989841
-0.167969 0.998795
-0.167847 0.971139
-0.167725 0.907886
-0.167603 0.811355
-0.16748 0.685084
-0.167358 0.533701
-0.167236 0.362756
-0.167114 0.178514
-0.166992 -0.0122715
-0.16687 -0.202607
-0.166748 -0.385516
-0.166626 -0.554294
-0.166504 -0.702755
-0.166382 -0.825456
-0.16626 -0.917901
-0.166138 -0.9767
-0.166016 -0.999699
-0.165894 -0.986054
-0.165771 -0.936266
-0.165649 -0.852159
-0.165527 -0.736817
-0.165405 -0.594466
-0.165283 -0.430326
-0.165161 -0.250413
-0.165039 -0.0613207
-0.164917 0.130019
-0.164795 0.316593
-0.164673 0.491563
-0.164551 0.648514
-0.164429 0.781695
-0.164307 0.886223
-0.164185 0.958266
-0.164063 0.995185
-0.16394 0.995625
-0.163818 0.959572
-0.163696 0.888345
-0.163574 0.784557
-0.163452 0.652011
-0.16333 0.495565
-0.163208 0.320955
-0.163086 0.134581
-0.162964 -0.0567268
-0.162842 -0.245955
-0.16272 -0.426168
-0.162598 -0.59076
-0.162476 -0.733697
-0.162354 -0.849742
-0.162231 -0.934639
-0.162109 -0.985278
-0.161987 -0.999801
-0.161865 -0.977677
-0.161743 -0.919717
-0.161621 -0.828045
-0.161499 -0.706021
-0.161377 -0.558119
-0.161255 -0.389758
-0.161133 -0.207111
-0.161011 -0.016873
-0.160889 0.173984
-0.160767 0.358463
-0.160645 0.529804
-0.160522 0.681724
-0.1604 0.808656
-0.160278 0.905947
-0.160156 0.970031
-0.160034 0.998559
-0.159912 0.990485
-0.15979 0.946105
-0.159668 0.867046
-0.159546 0.756206
-0.159424 0.617647
-0.159302 0.456449
-0.15918 0.27852
-0.159058 0.0903814
-0.158936 -0.10107
-0.158813 -0.288816
-0.158691 -0.465976
-0.158569 -0.626056
-0.158447 -0.763188
-0.158325 -0.872346
-0.158203 -0.949528
-0.158081 -0.991906
-0.157959 -0.997925
-0.157837 -0.967366
-0.157715 -0.901349
-0.157593 -0.802293
-0.157471 -0.673829
-0.157349 -0.520666
-0.157227 -0.348419
-0.157104 -0.1634
-0.156982 0.0276081
-0.15686 0.217604
-0.156738 0.399624
-0.156616 0.566996
-0.156494 0.713585
-0.156372 0.834018
-0.15625 0.92388
-0.156128 0.979877
-0.156006 0.999958
-0.155884 0.983385
-0.155762 0.930767
-0.15564 0.844032
-0.155518 0.726359
-0.155396 0.582062
-0.155273 0.41643
-0.155151 0.235533
-0.155029 0.0460032
-0.154907 -0.145213
-0.154785 -0.331106
-0.154663 -0.504863
-0.154541 -0.660114
-0.154419 -0.791169
-0.154297 -0.893224
-0.154175 -0.962538
-0.154053 -0.996571
-0.153931 -0.994075
-0.153809 -0.955141
-0.153687 -0.881197
-0.153564 -0.774953
-0.153442 -0.640303
-0.15332 -0.482184
-0.153198 -0.30639
-0.153076 -0.119365
-0.152954 0.0720347
-0.152832 0.260794
-0.15271 0.439994
-0.152588 0.603067
-0.152466 0.744034
-0.152344 0.857729
-0.152222 0.939984
-0.1521 0.987784
-0.151978 0.999378
-0.151855 0.974339
-0.151733 0.913587
-0.151611 0.819348
-0.151489 0.695075
-0.151367 0.545325
-0.151245 0.375586
-0.151123 0.19208
-0.151001 0.00153398
-0.150879 -0.189069
-0.150757 -0.372741
-0.150635 -0.542751
-0.150513 -0.692866
-0.150391 -0.817585
-0.150269 -0.912335
-0.150146 -0.973644
-0.150024 -0.999265
-0.149902 -0.988258
-0.14978 -0.941026
-0.149658 -0.859302
-0.149536 -0.74608
-0.149414 -0.605511
-0.149292 -0.442747
-0.14917 -0.263755
-0.149048 -0.0750943
-0.148926 0.116319
-0.148804 0.303468
-0.148682 0.479494
-0.14856 0.637944
-0.148438 0.77301
-0.148315 0.879743
-0.148193 0.954228
-0.148071 0.993737
-0.147949 0.99682
-0.147827 0.963366
-0.147705 0.894599
-0.147583 0.793042
-0.147461 0.662416
-0.147339 0.507509
-0.147217 0.334
-0.147095 0.148248
-0.146973 -0.0429383
-0.146851 -0.23255
-0.146729 -0.413638
-0.146606 -0.579565
-0.146484 -0.724247
-0.146362 -0.842383
-0.14624 -0.929641
-0.146118 -0.982824
-0.145996 -0.999981
-0.145874 -0.980485
-0.145752 -0.925049
-0.14563 -0.835706
-0.145508 -0.715731
-0.145386 -0.569521
-0.145264 -0.402435
-0.145142 -0.220598
-0.14502 -0.0306748
-0.144897 0.160372
-0.144775 0.345541
-0.144653 0.518045
-0.144531 0.671559
-0.144409 0.800458
-0.144287 0.900016
-0.144165 0.966584
-0.144043 0.997723
-0.143921 0.992291
-0.143799 0.950486
-0.143677 0.873842
-0.143555 0.765167
-0.143433 0.628446
-0.143311 0.468689
-0.143188 0.291752
-0.143066 0.104122
-0.142944 -0.0873255
-0.142822 -0.275572
-0.1427 -0.453717
-0.142578 -0.615232
-0.142456 -0.754195
-0.142334 -0.865514
-0.142212 -0.945107
-0.14209 -0.990058
-0.141968 -0.998719
-0.141846 -0.970772
-0.141724 -0.907242
-0.141602 -0.810457
-0.141479 -0.683965
-0.141357 -0.532403
-0.141235 -0.361326
-0.141113 -0.177004
-0.140991 0.0138054
-0.140869 0.204109
-0.140747 0.386931
-0.140625 0.55557
-0.140503 0.703845
-0.140381 0.826321
-0.140259 0.918508
-0.140137 0.977028
-0.140015 0.999735
-0.139893 0.985798
-0.139771 0.935726
-0.139648 0.851355
-0.139526 0.735779
-0.139404 0.593232
-0.139282 0.428941
-0.13916 0.248928
-0.139038 0.0597896
-0.138916 -0.13154
-0.138794 -0.318048
-0.138672 -0.492898
-0.13855 -0.649681
-0.138428 -0.782651
-0.138306 -0.886932
-0.138184 -0.958703
-0.138062 -0.995334
-0.137939 -0.995481
-0.137817 -0.959139
-0.137695 -0.88764
-0.137573 -0.783605
-0.137451 -0.650847
-0.137329 -0.494232
-0.137207 -0.319502
-0.137085 -0.133061
-0.136963 0.0582583
-0.136841 0.247442
-0.136719 0.427555
-0.136597 0.591997
-0.136475 0.734739
-0.136353 0.850549
-0.13623 0.935184
-0.136108 0.985539
-0.135986 0.999769
-0.135864 0.977354
-0.135742 0.919114
-0.13562 0.827184
-0.135498 0.704934
-0.135376 0.556845
-0.135254 0.388345
-0.135132 0.20561
-0.13501 0.0153392
-0.134888 -0.175494
-0.134766 -0.359895
-0.134644 -0.531104
-0.134521 -0.682846
-0.134399 -0.809558
-0.134277 -0.906596
-0.134155 -0.970403
-0.134033 -0.99864
-0.133911 -0.990273
-0.133789 -0.945607
-0.133667 -0.866281
-0.133545 -0.755201
-0.133423 -0.61644
-0.133301 -0.455084
-0.133179 -0.277046
-0.133057 -0.0888536
-0.132935 0.102596
-0.132813 0.290285
-0.13269 0.467333
-0.132568 0.627252
-0.132446 0.764179
-0.132324 0.873095
-0.132202 0.950008
-0.13208 0.992099
-0.131958 0.997825
-0.131836 0.966976
-0.131714 0.900683
-0.131592 0.801376
-0.13147 0.672695
-0.131348 0.519356
-0.131226 0.34698
-0.131104 0.161886
-0.130981 -0.0291415
-0.130859 -0.219101
-0.130737 -0.40103
-0.130615 -0.568259
-0.130493 -0.714659
-0.130371 -0.834863
-0.130249 -0.924465
-0.130127 -0.980182
-0.130005 -0.999971
-0.129883 -0.983105
-0.129761 -0.930205
-0.129639 -0.843208
-0.129517 -0.725304
-0.129395 -0.580814
-0.129272 -0.415034
-0.12915 -0.234042
-0.129028 -0.0444708
-0.128906 0.14673
-0.128784 0.332553
-0.128662 0.506187
-0.12854 0.661266
-0.128418 0.792107
-0.128296 0.893913
-0.128174 0.962953
-0.128052 0.996697
-0.12793 0.993907
-0.127808 0.954686
-0.127686 0.880471
-0.127563 0.773983
-0.127441 0.639124
-0.127319 0.480839
-0.127197 0.304929
-0.127075 0.117842
-0.126953 -0.0735646
-0.126831 -0.262275
-0.126709 -0.441371
-0.126587 -0.60429
-0.126465 -0.745058
-0.126343 -0.858516
-0.126221 -0.940506
-0.126099 -0.988022
-0.125977 -0.999322
-0.125854 -0.973993
-0.125732 -0.912962
-0.12561 -0.818467
-0.125488 -0.693971
-0.125366 -0.544039
-0.125244 -0.374164
-0.125122 -0.190575
-0.125 2.00885e-14
-0.124878 0.190575
-0.124756 0.374164
-0.124634 0.544039
-0.124512 0.693971
-0.12439 0.818467
-0.124268 0.912962
-0.124146 0.973993
-0.124023 0.999322
